Vol (mm),P (bar)
2,45
2.1,40
2.2,35.5
2.3,31.3
2.4,27.1
2.5,23.9
2.6,22.3
2.7,22.1
2.8,22
2.9,22
3,22
3.1,22
3.2,22
3.3,21.9
3.4,21.9
3.5,21.9
3.6,21.9
3.7,21.9
3.8,21.8
3.9,21.8
4,21.8
4.1,21.8
4.2,21.7
4.3,21.7
4.4,21.7
4.5,21.7
4.6,21.7
4.7,21.7
4.8,21.6
4.9,21.6
5,21.6
5.1,21.6
5.2,21.6
5.3,21.6
5.4,21.6
5.5,21.5
5.6,21.5
5.7,21.5
5.8,21.4
5.9,21.4
6,21.4
6.1,21.4
6.2,21.4
6.3,21.4
6.4,21.4
6.5,21.4
6.6,21.4
6.7,21.4
6.8,21.4
6.9,21.3
7,21.3
7.1,21.3
7.2,21.2
7.3,21.2
7.4,21.2
7.5,21.2
7.6,21.2
7.7,21.2
7.8,21.2
7.9,21.2
8,21.2
8.1,21.2
8.2,21.1
8.3,21.1
8.4,21.1
8.5,21.1
8.6,21.1
8.7,21.1
8.8,21.1
8.9,21.1
9,21.1
9.1,21.1
9.2,21.1
9.3,21
9.4,21
9.5,21
9.6,21
9.7,21
9.8,21
9.9,21
10,21
10.1,21
10.2,21
10.3,21
10.4,21
10.5,21
10.6,20.9
10.7,20.9
10.8,20.9
10.9,20.9
11,20.9
11.1,20.9
11.2,20.9
11.3,20.9
11.4,20.9
11.5,20.9
11.6,20.9
11.7,20.9
11.8,20.9
11.9,20.9
12,20.8
12.1,20.8
12.2,20.8
12.3,20.8
12.4,20.8
12.5,20.8
12.6,20.8
12.7,20.8
12.8,20.8
12.9,20.8
13,20.8
13.1,20.8
13.2,20.8
13.3,20.8
13.4,20.8
13.5,20.8
13.6,20.8
13.7,20.8
13.8,20.8
13.9,20.8
14,20.8
14.1,20.8
14.2,20.8
14.3,20.8
14.4,20.8
14.5,20.8
14.6,20.8
14.7,20.8
14.8,20.8
14.9,20.8
15,20.8
15.1,20.8
15.2,20.8
15.3,20.8
15.4,20.8
15.5,20.8
15.6,20.8
15.7,20.8
15.8,20.8
15.9,20.8
16,20.8
16.1,20.8
16.2,20.8
16.3,20.8
16.4,20.8
16.5,20.8
16.6,20.8
16.7,20.8
16.8,20.8
16.9,20.8
17,20.7
17.1,20.6
17.2,20.5
17.3,20.4
17.4,20.3
17.5,20.2
17.6,20.1
17.7,20.1
17.8,20
17.9,20
18,20
18.1,20
18.2,19.9
18.3,19.9
18.4,19.8
18.5,19.8
18.6,19.7
18.7,19.5
18.8,19.4
18.9,19.3
19,19.2
19.1,19.1
19.2,19.1
19.3,19.1
19.4,19
19.5,19
19.6,19
19.7,18.9
19.8,18.9
19.9,18.9
20,18.8
20.1,18.8
20.2,18.7
20.3,18.6
20.4,18.5
20.5,18.4
20.6,18.2
20.7,18.1
20.8,18.1
20.9,18.1
21,18
21.1,18
21.2,18
21.3,18
21.4,18
21.5,17.9
21.6,17.9
21.7,17.8
21.8,17.8
21.9,17.7
22,17.5
22.1,17.4
22.2,17.4
22.3,17.3
22.4,17.3
22.5,17.2
22.6,17.2
22.7,17.1
22.8,17.1
22.9,17
23,17
23.1,17
23.2,16.9
23.3,16.9
23.4,16.9
23.5,16.8
23.6,16.8
23.7,16.7
23.8,16.7
23.9,16.6
24,16.5
24.2,16.4
24.4,16.2
24.6,16.1
24.8,16.1
25,16
25.2,15.9
25.4,15.9
25.6,15.8
25.8,15.7
26,15.6
26.2,15.5
26.4,15.4
26.6,15.3
26.8,15.2
27,15.1
27.2,15
27.4,15
27.6,15
27.8,14.9
28,14.9
28.2,14.8
28.4,14.7
28.6,14.5
28.8,14.5
29,14.4
29.2,14.2
29.4,14.1
29.6,14.1
29.8,14
30,14
30.2,13.9
30.4,13.8
32.5,13
35.8,12
39.6,11
44.2,10
